# wavelength,transmission
2.000000000000000111e-01,3.299855498932264469e-22
2.001000125015627018e-01,5.607188952571708956e-19
2.002000250031253925e-01,8.512338016733508276e-19
2.003000375046881110e-01,1.079877903233543983e-18
2.004000500062508017e-01,1.250910179936075734e-18
2.005000625078134924e-01,1.368710304352915508e-18
2.006000750093761831e-01,1.437780331735464566e-18
2.007000875109388738e-01,1.462746173213267371e-18
2.008001000125015645e-01,1.448358844573633327e-18
2.009001125140642829e-01,1.399495483061115677e-18
2.010001250156269736e-01,1.321160124604829762e-18
2.011001375171896643e-01,1.218484233869370950e-18
2.012001500187523551e-01,1.096726979533179285e-18
2.013001625203150458e-01,9.612752472257755181e-19
2.014001750218777365e-01,8.176433826043506484e-19
2.015001875234404549e-01,6.714726571202925569e-19
2.016002000250031456e-01,5.285304491188845877e-19
2.017002125265658363e-01,3.947091777713841042e-19
2.018002250281285270e-01,2.760249182011987916e-19
2.019002375296912177e-01,1.786154303981039171e-19
2.020002500312539084e-01,1.087382439146449864e-19
2.021002625328165991e-01,7.113130746054459056e-20
2.022002750343793176e-01,6.408162124888484486e-20
2.023002875359420083e-01,8.419734245870794306e-20
2.024003000375046990e-01,1.280069312993963415e-19
2.025003125390673897e-01,1.919615256271013217e-19
2.026003250406300804e-01,2.724367659512991660e-19
2.027003375421927989e-01,3.657340507479584722e-19
2.028003500437554896e-01,4.680812022748160330e-19
2.029003625453181803e-01,5.756325232066408409e-19
2.030003750468808710e-01,6.844682244142997501e-19
2.031003875484435617e-01,7.915486438807036360e-19
2.032004000500062524e-01,8.975725078847106673e-19
2.033004125515689708e-01,1.004194769645210623e-18
2.034004250531316615e-01,1.113101980457964468e-18
2.035004375546943522e-01,1.226012875804868598e-18
2.036004500562570430e-01,1.344678816249584245e-18
2.037004625578197337e-01,1.470884078081346395e-18
2.038004750593824244e-01,1.606445988576059243e-18
2.039004875609451428e-01,1.753214900674012316e-18
2.040005000625078335e-01,1.913074001629660900e-18
2.041005125640705242e-01,1.843812443988957043e-14
2.042005250656332149e-01,2.004125105525953387e-14
2.043005375671959056e-01,2.164196008387400472e-14
2.044005500687585963e-01,2.317035190805123782e-14
2.045005625703212870e-01,2.455505038728469465e-14
2.046005750718840055e-01,2.572322647600875148e-14
2.047005875734466962e-01,2.660063146152732133e-14
2.048006000750093869e-01,2.711164011079178332e-14
2.049006125765720776e-01,2.717930400226859019e-14
2.050006250781347683e-01,2.672541531615224768e-14
2.051006375796974868e-01,2.570624259463264060e-14
2.052006500812601775e-01,2.421821515345051645e-14
2.053006625828228682e-01,2.239445198246916905e-14
2.054006750843855589e-01,2.037061510581841929e-14
2.055006875859482496e-01,1.828482745516226693e-14
2.056007000875109403e-01,1.627762745232330015e-14
2.057007125890736587e-01,1.449196145630723506e-14
2.058007250906363494e-01,1.307321521529650356e-14
2.059007375921990401e-01,1.216928546748578927e-14
2.060007500937617309e-01,1.193069283521307142e-14
2.061007625953244216e-01,1.245894450239263292e-14
2.062007750968871123e-01,1.365401796618313883e-14
2.063007875984498307e-01,1.536410562855270637e-14
2.064008001000125214e-01,1.743453617674372910e-14
2.065008126015752121e-01,1.970765880368707657e-14
2.066008251031379028e-01,2.202275452943225516e-14
2.067008376047005935e-01,2.421597551196911704e-14
2.068008501062632842e-01,2.612031326188198589e-14
2.069008626078260027e-01,2.756559669294716412e-14
2.070008751093886934e-01,2.837852098261858523e-14
2.071008876109513841e-01,2.843343630488821908e-14
2.072009001125140748e-01,2.780118677248302315e-14
2.073009126140767655e-01,2.660278437951943417e-14
2.074009251156394562e-01,2.496172321679122059e-14
2.075009376172021747e-01,2.300396770299688433e-14
2.076009501187648654e-01,2.085792194214993071e-14
2.077009626203275561e-01,1.865437967370148375e-14
2.078009751218902468e-01,1.652645429872192955e-14
2.079009876234529375e-01,1.460948848716789089e-14
2.080010001250156282e-01,1.304094286773973476e-14
2.081010126265783189e-01,1.192894772681789241e-14
2.082010251281410373e-01,1.126096529174754986e-14
2.083010376297037280e-01,1.099421339256786157e-14
2.084010501312664188e-01,1.108503223426484690e-14
2.085010626328291095e-01,1.148898090346187409e-14
2.086010751343918002e-01,1.216091620603583146e-14
2.087010876359545186e-01,1.305505332332119355e-14
2.088011001375172093e-01,1.412500780897252281e-14
2.089011126390799000e-01,1.532381847030811651e-14
2.090011251406425907e-01,1.660395069615103899e-14
2.091011376422052814e-01,1.792425418757984747e-14
2.092011501437679721e-01,1.927007628123512743e-14
2.093011626453306628e-01,2.063303855911045359e-14
2.094011751468933813e-01,2.200454140550505059e-14
2.095011876484560720e-01,2.337575617951350093e-14
2.096012001500187627e-01,2.473762024494505642e-14
2.097012126515814534e-01,2.608083495799159693e-14
2.098012251531441441e-01,2.739586671574017772e-14
2.099012376547068626e-01,2.867295116968484969e-14
2.100012501562695533e-01,2.990210070103456383e-14
2.101012626578322440e-01,3.106957440644443321e-14
2.102012751593949347e-01,3.214772181884867699e-14
2.103012876609576254e-01,3.310523440451061528e-14
2.104013001625203161e-01,3.391041922992058325e-14
2.105013126640830345e-01,3.453119774231614721e-14
2.106013251656457252e-01,3.493509848781711252e-14
2.107013376672084159e-01,3.508924362844046374e-14
2.108013501687711067e-01,3.496032911841487000e-14
2.109013626703337974e-01,3.451459839733746339e-14
2.110013751718964881e-01,3.371780950989224674e-14
2.111013876734592065e-01,3.255819572262303073e-14
2.112014001750218972e-01,3.111239486241729128e-14
2.113014126765845879e-01,2.947951521640567195e-14
2.114014251781472786e-01,2.776015336665432321e-14
2.115014376797099693e-01,2.605642442501422856e-14
2.116014501812726600e-01,2.447198295090544506e-14
2.117014626828353785e-01,2.311203430967527033e-14
2.118014751843980692e-01,2.208333622525337296e-14
2.119014876859607599e-01,2.149419027838503908e-14
2.120015001875234506e-01,2.145442295697912492e-14
2.121015126890861413e-01,2.203062377880519752e-14
2.122015251906488320e-01,2.311854597029115128e-14
2.123015376922115505e-01,2.457117699251854334e-14
2.124015501937742412e-01,2.623935544020013371e-14
2.125015626953369319e-01,2.797178574561392239e-14
2.126015751968996226e-01,2.961503987131449721e-14
2.127015876984623133e-01,3.101354561432299172e-14
2.128016002000250040e-01,3.200956121002151618e-14
2.129016127015877224e-01,3.244313592015637314e-14
2.130016252031504131e-01,3.215205651358522560e-14
2.131016377047131038e-01,3.102828431625488699e-14
2.132016502062757946e-01,2.917826362231515084e-14
2.133016627078384853e-01,2.676165882173327778e-14
2.134016752094011760e-01,2.394055037110516614e-14
2.135016877109638944e-01,2.087949323592415903e-14
2.136017002125265851e-01,1.774554785866097822e-14
2.137017127140892758e-01,1.470828294851276321e-14
2.138017252156519665e-01,1.193974938407327551e-14
2.139017377172146572e-01,9.614424523543110101e-15
2.140017502187773479e-01,7.909125985408448440e-15
2.141017627203400664e-01,6.954888959670812963e-15
2.142017752219027571e-01,6.701399217482798231e-15
2.143017877234654478e-01,7.053885768521408717e-15
2.144018002250281385e-01,7.916162923395429998e-15
2.145018127265908292e-01,9.190723323458941065e-15
2.146018252281535199e-01,1.077880615744300639e-14
2.147018377297162384e-01,1.258043998480694894e-14
2.148018502312789291e-01,1.449445960058702150e-14
2.149018627328416198e-01,1.641849638007376196e-14
2.150018752344043105e-01,1.824894169545066674e-14
2.151018877359670012e-01,1.990694252691209267e-14
2.152019002375296919e-01,2.141145017810252884e-14
2.153019127390924103e-01,2.280504042098775110e-14
2.154019252406551010e-01,2.413080822913367459e-14
2.155019377422177917e-01,2.543239967866779272e-14
2.156019502437804825e-01,2.675403725738461851e-14
2.157019627453431732e-01,2.814053842633618267e-14
2.158019752469058639e-01,2.963732727013919651e-14
2.159019877484685823e-01,3.129043906587131329e-14
2.160020002500312730e-01,3.314651739672676854e-14
2.161020127515939637e-01,3.522629844158437584e-14
2.162020252531566544e-01,3.745053220434074141e-14
2.163020377547193451e-01,3.971511011227327482e-14
2.164020502562820358e-01,4.191441310169756444e-14
2.165020627578447265e-01,4.394131912463433933e-14
2.166020752594074450e-01,4.568721452960622617e-14
2.167020877609701357e-01,4.704200726501328902e-14
2.168021002625328264e-01,4.789414573787446776e-14
2.169021127640955171e-01,4.813064136303797003e-14
2.170021252656582078e-01,4.763682497620469548e-14
2.171021377672209263e-01,4.634851798877967910e-14
2.172021502687836170e-01,4.439791004487933470e-14
2.173021627703463077e-01,4.196607166531842495e-14
2.174021752719089984e-01,3.923661839179127913e-14
2.175021877734716891e-01,3.639546187266135757e-14
2.176022002750343798e-01,3.363075167765692666e-14
2.177022127765970705e-01,3.113286391154321948e-14
2.178022252781597889e-01,2.909443735376981163e-14
2.179022377797224796e-01,2.771045785668770463e-14
2.180022502812851704e-01,2.717839099955033673e-14
2.181022627828478611e-01,2.762665431602207518e-14
2.182022752844105518e-01,2.891653912324981314e-14
2.183022877859732702e-01,3.084459412110351918e-14
2.184023002875359609e-01,3.320472778363550402e-14
2.185023127890986516e-01,3.578807302613009414e-14
2.186023252906613423e-01,3.838286561109080180e-14
2.187023377922240330e-01,4.077433691772141747e-14
2.188023502937867237e-01,4.274462172801932375e-14
2.189023627953494144e-01,4.407268171297661850e-14
2.190023752969121329e-01,4.453424622059865995e-14
2.191023877984748236e-01,4.397300278171550102e-14
2.192024003000375143e-01,4.249667871784020017e-14
2.193024128016002050e-01,4.027680251448441824e-14
2.194024253031628957e-01,3.748743003561574639e-14
2.195024378047256142e-01,3.430519768271699573e-14
2.196024503062883049e-01,3.090936973168222620e-14
2.197024628078509956e-01,2.748187939462824465e-14
2.198024753094136863e-01,2.420736312893515926e-14
2.199024878109763770e-01,2.127318768947711073e-14
2.200025003125390677e-01,1.469353440905784348e-10
2.201025128141017861e-01,1.335158776085486982e-10
2.202025253156644768e-01,1.252064139653974946e-10
2.203025378172271675e-01,1.215324767948008089e-10
2.204025503187898583e-01,1.220125366941010983e-10
2.205025628203525490e-01,1.261586677380200744e-10
2.206025753219152397e-01,1.334769651201535028e-10
2.207025878234779581e-01,1.434677191260895754e-10
2.208026003250406488e-01,1.556253404352200273e-10
2.209026128266033395e-01,1.694380313281756291e-10
2.210026253281660302e-01,1.843871983030381802e-10
2.211026378297287209e-01,2.000405244061611195e-10
2.212026503312914116e-01,2.163071345476457172e-10
2.213026628328541301e-01,2.331746606497622711e-10
2.214026753344168208e-01,2.506294223018985191e-10
2.215026878359795115e-01,2.686562584471407303e-10
2.216027003375422022e-01,2.872383632623943565e-10
2.217027128391048929e-01,3.063571266914283552e-10
2.218027253406675836e-01,3.259919801937195046e-10
2.219027378422303021e-01,3.461202483738089970e-10
2.220027503437929928e-01,3.667170050406088273e-10
2.221027628453556835e-01,3.876388098273745308e-10
2.222027753469183742e-01,4.083072533937383794e-10
2.223027878484810649e-01,4.280302200462612310e-10
2.224028003500437556e-01,4.460988392912856538e-10
2.225028128516064740e-01,4.617868429123604038e-10
2.226028253531691647e-01,4.743497678336473006e-10
2.227028378547318554e-01,4.830239999749984515e-10
2.228028503562945462e-01,4.870256539392782828e-10
2.229028628578572369e-01,4.855492829437927406e-10
2.230028753594199276e-01,4.777664222164212196e-10
2.231028878609826460e-01,4.632530732964941403e-10
2.232029003625453367e-01,4.431565386100395523e-10
2.233029128641080274e-01,4.190196592638043970e-10
2.234029253656707181e-01,3.924267465772854506e-10
2.235029378672334088e-01,3.650061261761600679e-10
2.236029503687960995e-01,3.384330071934521341e-10
2.237029628703588180e-01,3.144326890653890037e-10
2.238029753719215087e-01,2.947841196253420760e-10
2.239029878734841994e-01,2.813238195326745668e-10
2.240030003750468901e-01,2.759501725528469735e-10
2.241030128766095808e-01,2.799354326281187366e-10
2.242030253781722715e-01,2.920458236942239062e-10
2.243030378797349900e-01,3.104215094567245290e-10
2.244030503812976807e-01,3.331407973129536136e-10
2.245030628828603714e-01,3.582152766302552412e-10
2.246030753844230621e-01,3.835835504767983588e-10
2.247030878859857528e-01,4.071018597581986500e-10
2.248031003875484435e-01,4.265439707219559092e-10
2.249031128891111619e-01,4.396001053867646469e-10
2.250031253906738526e-01,4.438760215679009724e-10
2.251031378922365433e-01,4.376868340677812320e-10
2.252031503937992341e-01,4.222099884022936053e-10
2.253031628953619248e-01,3.993456032074114520e-10
2.254031753969246155e-01,3.710725332546809228e-10
2.255031878984873339e-01,3.394494241110141313e-10
2.256032004000500246e-01,3.066147845202960468e-10
2.257032129016127153e-01,2.747860659083893133e-10
2.258032254031754060e-01,2.462577394286445845e-10
2.259032379047380967e-01,2.233983621595074057e-10
2.260032504063007874e-01,2.086466042066965400e-10
2.261032629078635059e-01,2.038203559658886474e-10
2.262032754094261966e-01,2.082693514776690822e-10
2.263032879109888873e-01,2.207346553132520851e-10
2.264033004125515780e-01,2.399067239521357085e-10
2.265033129141142687e-01,2.644278384320574664e-10
2.266033254156769594e-01,2.928946965995907908e-10
2.267033379172396779e-01,3.238611418888079072e-10
2.268033504188023686e-01,3.558425994955928468e-10
2.269033629203650593e-01,3.873241917928902110e-10
2.270033754219277500e-01,4.167607065285799897e-10
2.271033879234904407e-01,4.429551634471255208e-10
2.272034004250531314e-01,4.660618314955385415e-10
2.273034129266158498e-01,4.865534369921390210e-10
2.274034254281785405e-01,5.049153433826465197e-10
2.275034379297412312e-01,5.216448975992601429e-10
2.276034504313039220e-01,5.372507479963287898e-10
2.277034629328666127e-01,5.522521356715993429e-10
2.278034754344293034e-01,5.671781422700814751e-10
2.279034879359920218e-01,5.825668849080305078e-10
2.280035004375547125e-01,5.989646623736572656e-10
2.281035129391174032e-01,6.166592713371261624e-10
2.282035254406800939e-01,6.349805621300694101e-10
2.283035379422427846e-01,6.530311590199470690e-10
2.284035504438054753e-01,6.699017934571769110e-10
2.285035629453681938e-01,6.846727633911719520e-10
2.286035754469308845e-01,6.964154013721177309e-10
2.287035879484935752e-01,7.041935518798109757e-10
2.288036004500562659e-01,7.070650579811543937e-10
2.289036129516189566e-01,7.040832571092187822e-10
2.290036254531816473e-01,6.942985061159326453e-10
2.291036379547443658e-01,6.772425113636710816e-10
2.292036504563070565e-01,6.541852248315382783e-10
2.293036629578697472e-01,6.267988587667361952e-10
2.294036754594324379e-01,5.967674393333088341e-10
2.295036879609951286e-01,5.657842956179205528e-10
2.296037004625578193e-01,5.355504650434454694e-10
2.297037129641205377e-01,5.077740234414171247e-10
2.298037254656832284e-01,4.841703468517073704e-10
2.299037379672459191e-01,4.664633118187982381e-10
2.300037504688086099e-01,4.563874108478806050e-10
2.301037629703713006e-01,4.550397130188170104e-10
2.302037754719339913e-01,4.611971568299470219e-10
2.303037879734967097e-01,4.731092470059481201e-10
2.304038004750594004e-01,4.890136011572212926e-10
2.305038129766220911e-01,5.071338825542828615e-10
2.306038254781847818e-01,5.256784065162512381e-10
2.307038379797474725e-01,5.428384869819785475e-10
2.308038504813101632e-01,5.567858211864345502e-10
2.309038629828728817e-01,5.656757253251711475e-10
2.310038754844355724e-01,5.676499207226802538e-10
2.311038879859982631e-01,5.614353080042364907e-10
2.312039004875609538e-01,5.478804385371561811e-10
2.313039129891236445e-01,5.283178017155261787e-10
2.314039254906863352e-01,5.040912496321771305e-10
2.315039379922490537e-01,4.765541913830259511e-10
2.316039504938117444e-01,4.470684527542208513e-10
2.317039629953744351e-01,4.170034977292983697e-10
2.318039754969371258e-01,3.877343950369043001e-10
2.319039879984998165e-01,3.606410484877874173e-10
2.320040005000625349e-01,3.371079930957737221e-10
2.321040130016251979e-01,3.182350537134200511e-10
2.322040255031879163e-01,3.040976863763291129e-10
2.323040380047506070e-01,2.945433557316541792e-10
2.324040505063132978e-01,2.894188957782743434e-10
2.325040630078759885e-01,2.885705109720970357e-10
2.326040755094386792e-01,2.918437763348176437e-10
2.327040880110013976e-01,2.990836365780204429e-10
2.328041005125640883e-01,3.101344042537716986e-10
2.329041130141267790e-01,3.248397569422343281e-10
2.330041255156894697e-01,3.430427286768228649e-10
2.331041380172521604e-01,3.645082758287000232e-10
2.332041505188148789e-01,3.887261879801914102e-10
2.333041630203775418e-01,4.151230881043200728e-10
2.334041755219402603e-01,4.431226716743996953e-10
2.335041880235029510e-01,4.721456515007562949e-10
2.336042005250656417e-01,5.016097152937548517e-10
2.337042130266283324e-01,5.309294960931023982e-10
2.338042255281910231e-01,5.595165557022701416e-10
2.339042380297537416e-01,5.867793812645949025e-10
2.340042505313164323e-01,6.121233991963421292e-10
2.341042630328791230e-01,6.350112657852198207e-10
2.342042755344418137e-01,6.551153293644315250e-10
2.343042880360045044e-01,6.721528536698162340e-10
2.344043005375672228e-01,6.858396100441597620e-10
2.345043130391298858e-01,6.958901364716762615e-10
2.346043255406926042e-01,7.020180330985164530e-10
2.347043380422552949e-01,7.039362944023920845e-10
2.348043505438179857e-01,7.013576781143448588e-10
2.349043630453806764e-01,6.939951109273926283e-10
2.350043755469433671e-01,6.815621555005497942e-10
2.351043880485060855e-01,6.641069396982260164e-10
2.352044005500687762e-01,6.428507426473225803e-10
2.353044130516314669e-01,6.192763134835666749e-10
2.354044255531941576e-01,5.948706492623758901e-10
2.355044380547568483e-01,5.711242338034921715e-10
2.356044505563195668e-01,5.495305967359326353e-10
2.357044630578822297e-01,5.315861942304476427e-10
2.358044755594449482e-01,5.187906127265146356e-10
2.359044880610076389e-01,5.126470968992456335e-10
2.360045005625703296e-01,5.146633482497110445e-10
2.361045130641330203e-01,5.256646740141746904e-10
2.362045255656957110e-01,5.440734482998082412e-10
2.363045380672584295e-01,5.677821483699511026e-10
2.364045505688211202e-01,5.946768576582400328e-10
2.365045630703838109e-01,6.226364570735407490e-10
2.366045755719465016e-01,6.495320331600994722e-10
2.367045880735091923e-01,6.732265042220585574e-10
2.368046005750719107e-01,6.915744656044952763e-10
2.369046130766345737e-01,7.024222553692610306e-10
2.370046255781972921e-01,7.036083057007194937e-10
2.371046380797599828e-01,6.937058999858986511e-10
2.372046505813226736e-01,6.738719137264551729e-10
2.373046630828853643e-01,6.458325229555328609e-10
2.374046755844480550e-01,6.113220668395036963e-10
2.375046880860107734e-01,5.720831133910097077e-10
2.376047005875734641e-01,5.298662189253311523e-10
2.377047130891361548e-01,4.864293796200847058e-10
2.378047255906988455e-01,4.435371737966755266e-10
2.379047380922615362e-01,4.029595938895203957e-10
2.380047505938242547e-01,3.664705380597695533e-10
2.381047630953869176e-01,3.355300978021691796e-10
2.382047755969496361e-01,3.105006174305699991e-10
2.383047880985123268e-01,2.915023796489357388e-10
2.384048006000750175e-01,2.786518902579046342e-10
2.385048131016377082e-01,2.720630167591412572e-10
2.386048256032003989e-01,2.718482379591153842e-10
2.387048381047631174e-01,2.781198805234811991e-10
2.388048506063258081e-01,2.909913909510337284e-10
2.389048631078884988e-01,3.105786505128454766e-10
2.390048756094511895e-01,3.370013022441440782e-10
2.391048881110138802e-01,3.700683376685989846e-10
2.392049006125765986e-01,4.085002939421638028e-10
2.393049131141392893e-01,4.507800623085554452e-10
2.394049256157019800e-01,4.953863430487736161e-10
2.395049381172646707e-01,5.407922709001771620e-10
2.396049506188273615e-01,5.854645290589306578e-10
2.397049631203900522e-01,6.278629536444494705e-10
2.398049756219527429e-01,6.664406308885526996e-10
