# wavelength,transmission
2.000000000000000111e-01,2.438231622828971703e-27
2.001000125015627018e-01,1.130533793498040229e-23
2.002000250031253925e-01,2.589137887591041765e-23
2.003000375046881110e-01,4.140782413018792185e-23
2.004000500062508017e-01,5.521707180852580157e-23
2.005000625078134924e-01,6.569701016205006758e-23
2.006000750093761831e-01,7.204824959783181865e-23
2.007000875109388738e-01,7.411524504399859530e-23
2.008001000125015645e-01,7.222202175222625042e-23
2.009001125140642829e-01,6.702323889038404464e-23
2.010001250156269736e-01,5.937134376795227143e-23
2.011001375171896643e-01,5.020058512395597447e-23
2.012001500187523551e-01,4.042866646274685309e-23
2.013001625203150458e-01,3.087682981706796347e-23
2.014001750218777365e-01,2.220916642053636245e-23
2.015001875234404549e-01,1.489195345304246318e-23
2.016002000250031456e-01,9.173815153636942410e-24
2.017002125265658363e-01,5.087502625272971534e-24
2.018002250281285270e-01,2.474075920762884384e-24
2.019002375296912177e-01,1.030261157510134349e-24
2.020002500312539084e-01,3.797469659888751318e-25
2.021002625328165991e-01,1.616213747255559193e-25
2.022002750343793176e-01,1.304714621123222320e-25
2.023002875359420083e-01,2.240454990968065469e-25
2.024003000375046990e-01,5.151250705823395768e-25
2.025003125390673897e-01,1.152368802637824231e-24
2.026003250406300804e-01,2.308973003493456666e-24
2.027003375421927989e-01,4.139474873980328796e-24
2.028003500437554896e-01,6.745007202247009565e-24
2.029003625453181803e-01,1.014730121899330660e-23
2.030003750468808710e-01,1.427172677312240998e-23
2.031003875484435617e-01,1.898551004229909038e-23
2.032004000500062524e-01,2.428240159982940280e-23
2.033004125515689708e-01,3.023185242212310315e-23
2.034004250531316615e-01,3.694606967883736696e-23
2.035004375546943522e-01,4.458137590490816728e-23
2.036004500562570430e-01,5.334129849274641086e-23
2.037004625578197337e-01,6.348144088947333630e-23
2.038004750593824244e-01,7.531618730910884223e-23
2.039004875609451428e-01,8.922729266613898586e-23
2.040005000625078335e-01,1.056744087600316038e-22
2.041005125640705242e-01,1.104831519039884329e-18
2.042005250656332149e-01,1.297973500533238755e-18
2.043005375671959056e-01,1.505161432567768274e-18
2.044005500687585963e-01,1.715742807140051880e-18
2.045005625703212870e-01,1.916426114307254496e-18
2.046005750718840055e-01,2.091772381969419811e-18
2.047005875734466962e-01,2.225017047199667144e-18
2.048006000750093869e-01,2.299232480229906559e-18
2.049006125765720776e-01,2.298840940039607102e-18
2.050006250781347683e-01,2.211487045846147117e-18
2.051006375796974868e-01,2.035914474154944915e-18
2.052006500812601775e-01,1.798255962129443221e-18
2.053006625828228682e-01,1.530255066317317890e-18
2.054006750843855589e-01,1.260173842442341961e-18
2.055006875859482496e-01,1.010553702571149286e-18
2.056007000875109403e-01,7.971212281216440310e-19
2.057007125890736587e-01,6.288727464700673862e-19
2.058007250906363494e-01,5.093708067918792942e-19
2.059007375921990401e-01,4.392861198488213723e-19
2.060007500937617309e-01,4.202200991231176214e-19
2.061007625953244216e-01,4.560485336208767369e-19
2.062007750968871123e-01,5.450674970766814626e-19
2.063007875984498307e-01,6.867634549105488433e-19
2.064008001000125214e-01,8.799619738142262097e-19
2.065008126015752121e-01,1.118808285234879846e-18
2.066008251031379028e-01,1.390170670250263321e-18
2.067008376047005935e-01,1.672513059207769936e-18
2.068008501062632842e-01,1.936285142744812456e-18
2.069008626078260027e-01,2.145879307837881033e-18
2.070008751093886934e-01,2.263203809542032944e-18
2.071008876109513841e-01,2.260980111737472112e-18
2.072009001125140748e-01,2.151208941849157659e-18
2.073009126140767655e-01,1.960448940256786016e-18
2.074009251156394562e-01,1.718015167200765627e-18
2.075009376172021747e-01,1.452427739452556839e-18
2.076009501187648654e-01,1.188722494341761375e-18
2.077009626203275561e-01,9.466537216122854498e-19
2.078009751218902468e-01,7.398187135420032473e-19
2.079009876234529375e-01,5.757331300518966813e-19
2.080010001250156282e-01,4.568849389846151226e-19
2.081010126265783189e-01,3.807889092076695879e-19
2.082010251281410373e-01,3.380395898254489955e-19
2.083010376297037280e-01,3.210076993053532983e-19
2.084010501312664188e-01,3.251289860725023641e-19
2.085010626328291095e-01,3.479786778976223626e-19
2.086010751343918002e-01,3.884477672273243129e-19
2.087010876359545186e-01,4.460255056460570415e-19
2.088011001375172093e-01,5.201917438048425781e-19
2.089011126390799000e-01,6.099221650729976955e-19
2.090011251406425907e-01,7.133090286531839748e-19
2.091011376422052814e-01,8.279504078720646497e-19
2.092011501437679721e-01,9.530485437497915701e-19
2.093011626453306628e-01,1.088098790528702992e-18
2.094011751468933813e-01,1.232358880103656705e-18
2.095011876484560720e-01,1.384842380904518390e-18
2.096012001500187627e-01,1.544316002788886793e-18
2.097012126515814534e-01,1.709300963849746940e-18
2.098012251531441441e-01,1.878078638477167681e-18
2.099012376547068626e-01,2.048700704909655275e-18
2.100012501562695533e-01,2.219004003628883299e-18
2.101012626578322440e-01,2.386072956391243041e-18
2.102012751593949347e-01,2.544523749694432513e-18
2.103012876609576254e-01,2.687954095334209777e-18
2.104013001625203161e-01,2.809580593420546040e-18
2.105013126640830345e-01,2.902446539300549637e-18
2.106013251656457252e-01,2.959679002008869328e-18
2.107013376672084159e-01,2.974796176291434378e-18
2.108013501687711067e-01,2.942066109564017875e-18
2.109013626703337974e-01,2.856918037847135993e-18
2.110013751718964881e-01,2.716407741017971683e-18
2.111013876734592065e-01,2.523310032365256586e-18
2.112014001750218972e-01,2.295521595533758603e-18
2.113014126765845879e-01,2.053113877550116757e-18
2.114014251781472786e-01,1.813717948814472720e-18
2.115014376797099693e-01,1.591870044470467932e-18
2.116014501812726600e-01,1.398843053427792107e-18
2.117014626828353785e-01,1.242976568977720763e-18
2.118014751843980692e-01,1.130518301143883591e-18
2.119014876859607599e-01,1.066989680109960970e-18
2.120015001875234506e-01,1.059088332503927359e-18
2.121015126890861413e-01,1.112614883633920459e-18
2.122015251906488320e-01,1.220719455443466578e-18
2.123015376922115505e-01,1.373911668017067001e-18
2.124015501937742412e-01,1.561102737373772886e-18
2.125015626953369319e-01,1.767615258539251748e-18
2.126015751968996226e-01,1.974221322138557104e-18
2.127015876984623133e-01,2.157233891619095041e-18
2.128016002000250040e-01,2.289676462562529734e-18
2.129016127015877224e-01,2.343556437962252440e-18
2.130016252031504131e-01,2.293268430200800103e-18
2.131016377047131038e-01,2.127903544819338292e-18
2.132016502062757946e-01,1.874774712507428959e-18
2.133016627078384853e-01,1.571264091436922722e-18
2.134016752094011760e-01,1.252817588440666838e-18
2.135016877109638944e-01,9.494319869755423645e-19
2.136017002125265851e-01,6.833126278912740716e-19
2.137017127140892758e-01,4.677329138076140051e-19
2.138017252156519665e-01,3.071275878396528846e-19
2.139017377172146572e-01,1.984517243487890846e-19
2.140017502187773479e-01,1.338366307364503921e-19
2.141017627203400664e-01,1.031431507739961072e-19
2.142017752219027571e-01,9.544654609300395525e-20
2.143017877234654478e-01,1.054085440433887526e-19
2.144018002250281385e-01,1.323280391512945269e-19
2.145018127265908292e-01,1.778001961740920540e-19
2.146018252281535199e-01,2.437725482339786332e-19
2.147018377297162384e-01,3.310085388682804080e-19
2.148018502312789291e-01,4.379679574125241851e-19
2.149018627328416198e-01,5.601130797871520792e-19
2.150018752344043105e-01,6.896490752306311259e-19
2.151018877359670012e-01,8.178508416055064419e-19
2.152019002375296919e-01,9.428447126441200867e-19
2.153019127390924103e-01,1.065780505996505976e-18
2.154019252406551010e-01,1.189014513176954065e-18
2.155019377422177917e-01,1.315948572224725512e-18
2.156019502437804825e-01,1.450946510705123039e-18
2.157019627453431732e-01,1.599329575570959267e-18
2.158019752469058639e-01,1.767452570261140784e-18
2.159019877484685823e-01,1.962862482147593132e-18
2.160020002500312730e-01,2.194541377267140961e-18
2.161020127515939637e-01,2.469514334300801548e-18
2.162020252531566544e-01,2.781074744696931654e-18
2.163020377547193451e-01,3.116289700513624248e-18
2.164020502562820358e-01,3.458549753463513938e-18
2.165020627578447265e-01,3.787622139314562094e-18
2.166020752594074450e-01,4.080150551928867923e-18
2.167020877609701357e-01,4.310612045818808148e-18
2.168021002625328264e-01,4.452742065700978170e-18
2.169021127640955171e-01,4.481437978508519852e-18
2.170021252656582078e-01,4.375126692112057466e-18
2.171021377672209263e-01,4.127942802705814426e-18
2.172021502687836170e-01,3.775474064109812144e-18
2.173021627703463077e-01,3.362405060470452184e-18
2.174021752719089984e-01,2.929946220873419832e-18
2.175021877734716891e-01,2.513066236256066302e-18
2.176022002750343798e-01,2.139041077471082786e-18
2.177022127765970705e-01,1.827333920062933993e-18
2.178022252781597889e-01,1.590832734856940974e-18
2.179022377797224796e-01,1.438472678711279313e-18
2.180022502812851704e-01,1.379271951106055434e-18
2.181022627828478611e-01,1.420434136681495105e-18
2.182022752844105518e-01,1.550936612237706200e-18
2.183022877859732702e-01,1.758626109420357061e-18
2.184023002875359609e-01,2.030993618249019324e-18
2.185023127890986516e-01,2.351041422484490407e-18
2.186023252906613423e-01,2.694742781531234844e-18
2.187023377922240330e-01,3.030131490968520421e-18
2.188023502937867237e-01,3.318060896903946889e-18
2.189023627953494144e-01,3.514673993653218670e-18
2.190023752969121329e-01,3.575628117425654959e-18
2.191023877984748236e-01,3.473361094239575645e-18
2.192024003000375143e-01,3.232199251472972029e-18
2.193024128016002050e-01,2.892721921640802379e-18
2.194024253031628957e-01,2.496755210575199807e-18
2.195024378047256142e-01,2.083209701019800955e-18
2.196024503062883049e-01,1.685015160483518205e-18
2.197024628078509956e-01,1.327180257378363348e-18
2.198024753094136863e-01,1.026006340839074857e-18
2.199024878109763770e-01,7.894853218894503041e-19
2.200025003125390677e-01,4.819432363103528556e-15
2.201025128141017861e-01,3.964383940973116745e-15
2.202025253156644768e-01,3.473142213108628538e-15
2.203025378172271675e-01,3.259827510593890003e-15
2.204025503187898583e-01,3.272866771682798932e-15
2.205025628203525490e-01,3.485138962846191072e-15
2.206025753219152397e-01,3.885170743298721120e-15
2.207025878234779581e-01,4.469413420771598617e-15
2.208026003250406488e-01,5.235626689510053523e-15
2.209026128266033395e-01,6.177390993230877460e-15
2.210026253281660302e-01,7.279768790291552519e-15
2.211026378297287209e-01,8.524221453007970840e-15
2.212026503312914116e-01,9.913368744465542622e-15
2.213026628328541301e-01,1.145547360833661272e-14
2.214026753344168208e-01,1.315851965700106712e-14
2.215026878359795115e-01,1.503014396027177776e-14
2.216027003375422022e-01,1.707756741361182412e-14
2.217027128391048929e-01,1.930752280450515278e-14
2.218027253406675836e-01,2.172618075403920510e-14
2.219027378422303021e-01,2.433907377043448073e-14
2.220027503437929928e-01,2.715101838040151705e-14
2.221027628453556835e-01,3.014775360286736127e-14
2.222027753469183742e-01,3.323923171940515946e-14
2.223027878484810649e-01,3.629917436274991639e-14
2.224028003500437556e-01,3.918057619851410203e-14
2.225028128516064740e-01,4.171930577716596972e-14
2.226028253531691647e-01,4.373974225764238884e-14
2.227028378547318554e-01,4.506253921392170654e-14
2.228028503562945462e-01,4.551461562162278669e-14
2.229028628578572369e-01,4.494148466610771127e-14
2.230028753594199276e-01,4.322204498151887164e-14
2.231028878609826460e-01,4.036072831751833757e-14
2.232029003625453367e-01,3.668057752022571342e-14
2.233029128641080274e-01,3.256398795652000994e-14
2.234029253656707181e-01,2.835807643542383460e-14
2.235029378672334088e-01,2.435515425187920530e-14
2.236029503687960995e-01,2.078278077656882613e-14
2.237029628703588180e-01,1.780386770816336452e-14
2.238029753719215087e-01,1.552735454425984665e-14
2.239029878734841994e-01,1.403003389687840463e-14
2.240030003750468901e-01,1.339016976658396688e-14
2.241030128766095808e-01,1.366596474292551989e-14
2.242030253781722715e-01,1.474860970270685442e-14
2.243030378797349900e-01,1.651989363432128582e-14
2.244030503812976807e-01,1.886032486625872409e-14
2.245030628828603714e-01,2.161286384657142987e-14
2.246030753844230621e-01,2.455967189671905238e-14
2.247030878859857528e-01,2.741252826412125477e-14
2.248031003875484435e-01,2.981863802472912180e-14
2.249031128891111619e-01,3.138230460809675742e-14
2.250031253906738526e-01,3.170356008122767856e-14
2.251031378922365433e-01,3.054547445307369132e-14
2.252031503937992341e-01,2.816712766365884835e-14
2.253031628953619248e-01,2.497405618943532713e-14
2.254031753969246155e-01,2.137292991620829667e-14
2.255031878984873339e-01,1.773006589581520781e-14
2.256032004000500246e-01,1.434258991013778977e-14
2.257032129016127153e-01,1.142320778631469438e-14
2.258032254031754060e-01,9.099555257743531183e-15
2.259032379047380967e-01,7.429074602574686392e-15
2.260032504063007874e-01,6.430316675182854545e-15
2.261032629078635059e-01,6.090411037675877039e-15
2.262032754094261966e-01,6.313221565587650273e-15
2.263032879109888873e-01,7.041999010682186227e-15
2.264033004125515780e-01,8.262258858827233313e-15
2.265033129141142687e-01,9.972184040953830973e-15
2.266033254156769594e-01,1.215800357172134192e-14
2.267033379172396779e-01,1.477474189224916827e-14
2.268033504188023686e-01,1.773278767302240261e-14
2.269033629203650593e-01,2.089077519090296875e-14
2.270033754219277500e-01,2.405448849733851464e-14
2.271033879234904407e-01,2.702856256041127369e-14
2.272034004250531314e-01,2.976692943123950362e-14
2.273034129266158498e-01,3.227866978101286468e-14
2.274034254281785405e-01,3.459112617679043735e-14
2.275034379297412312e-01,3.674662937535105239e-14
2.276034504313039220e-01,3.879987253208856787e-14
2.277034629328666127e-01,4.081596779977985424e-14
2.278034754344293034e-01,4.286921529214106210e-14
2.279034879359920218e-01,4.504261156817614548e-14
2.280035004375547125e-01,4.742812164024562934e-14
2.281035129391174032e-01,5.008450515087144310e-14
2.282035254406800939e-01,5.291648967926071524e-14
2.283035379422427846e-01,5.577931391392213641e-14
2.284035504438054753e-01,5.851142741919592350e-14
2.285035629453681938e-01,6.093621082361752763e-14
2.286035754469308845e-01,6.286587329782429272e-14
2.287035879484935752e-01,6.410755983643236866e-14
2.288036004500562659e-01,6.447169188989791378e-14
2.289036129516189566e-01,6.378255606233171302e-14
2.290036254531816473e-01,6.189115056823042860e-14
2.291036379547443658e-01,5.877369397138488713e-14
2.292036504563070565e-01,5.474178192245208567e-14
2.293036629578697472e-01,5.017036664360496753e-14
2.294036754594324379e-01,4.540577970874621293e-14
2.295036879609951286e-01,4.075073227052445900e-14
2.296037004625578193e-01,3.645658946820233778e-14
2.297037129641205377e-01,3.272297625478987247e-14
2.298037254656832284e-01,2.970475573326610769e-14
2.299037379672459191e-01,2.752641907958962655e-14
2.300037504688086099e-01,2.630393485943739126e-14
2.301037629703713006e-01,2.609966814849775826e-14
2.302037754719339913e-01,2.675739934304544388e-14
2.303037879734967097e-01,2.809892679831829587e-14
2.304038004750594004e-01,2.995556419775132636e-14
2.305038129766220911e-01,3.214643766761603692e-14
2.306038254781847818e-01,3.446463570183929611e-14
2.307038379797474725e-01,3.667125254293087857e-14
2.308038504813101632e-01,3.849738349604785199e-14
2.309038629828728817e-01,3.965467289316979753e-14
2.310038754844355724e-01,3.985414862407908892e-14
2.311038879859982631e-01,3.891565930173277587e-14
2.312039004875609538e-01,3.699693233716312387e-14
2.313039129891236445e-01,3.434823693637250709e-14
2.314039254906863352e-01,3.122459624403498337e-14
2.315039379922490537e-01,2.786804021336036118e-14
2.316039504938117444e-01,2.449433599218303557e-14
2.317039629953744351e-01,2.128422906984705812e-14
2.318039754969371258e-01,1.837916329248252362e-14
2.319039879984998165e-01,1.588166768961633788e-14
2.320040005000625349e-01,1.386038443051847627e-14
2.321040130016251979e-01,1.233732955030552793e-14
2.322040255031879163e-01,1.125212888292469499e-14
2.323040380047506070e-01,1.054351740403583553e-14
2.324040505063132978e-01,1.016750897562668413e-14
2.325040630078759885e-01,1.009563120647265432e-14
2.326040755094386792e-01,1.031321717083419881e-14
2.327040880110013976e-01,1.081775463986491888e-14
2.328041005125640883e-01,1.161729345720981481e-14
2.329041130141267790e-01,1.272891166904532851e-14
2.330041255156894697e-01,1.417724060205061778e-14
2.331041380172521604e-01,1.598626264163624965e-14
2.332041505188148789e-01,1.815731669244641897e-14
2.333041630203775418e-01,2.067975489469080196e-14
2.334041755219402603e-01,2.353224293589522087e-14
2.335041880235029510e-01,2.668013212809633933e-14
2.336042005250656417e-01,3.007363395141962976e-14
2.337042130266283324e-01,3.364680420060256510e-14
2.338042255281910231e-01,3.731734392552943290e-14
2.339042380297537416e-01,4.098722435258738829e-14
2.340042505313164323e-01,4.454414350742888678e-14
2.341042630328791230e-01,4.787296445344893457e-14
2.342042755344418137e-01,5.088405764636328810e-14
2.343042880360045044e-01,5.349440510490525066e-14
2.344043005375672228e-01,5.562296307137586684e-14
2.345043130391298858e-01,5.719276697990869173e-14
2.346043255406926042e-01,5.813322640969871077e-14
2.347043380422552949e-01,5.838260922341776830e-14
2.348043505438179857e-01,5.789071327985725180e-14
2.349043630453806764e-01,5.662172321972023048e-14
2.350043755469433671e-01,5.455725276973257367e-14
2.351043880485060855e-01,5.175131253048922859e-14
2.352044005500687762e-01,4.845042018631078122e-14
2.353044130516314669e-01,4.492629433307311868e-14
2.354044255531941576e-01,4.142361592424831963e-14
2.355044380547568483e-01,3.815457080821108682e-14
2.356044505563195668e-01,3.529857646814743039e-14
2.357044630578822297e-01,3.300720785607064337e-14
2.358044755594449482e-01,3.141433514305856605e-14
2.359044880610076389e-01,3.065148792421531710e-14
2.360045005625703296e-01,3.086845935818477899e-14
2.361045130641330203e-01,3.217502844223395352e-14
2.362045255656957110e-01,3.443735404022365729e-14
2.363045380672584295e-01,3.746922653682404667e-14
2.364045505688211202e-01,4.106348437359603154e-14
2.365045630703838109e-01,4.497114098259801195e-14
2.366045755719465016e-01,4.889094165756999732e-14
2.367045880735091923e-01,5.246940855251362977e-14
2.368046005750719107e-01,5.531143706586291824e-14
2.369046130766345737e-01,5.700150833559381415e-14
2.370046255781972921e-01,5.713559082362014446e-14
2.371046380797599828e-01,5.548247678259173587e-14
2.372046505813226736e-01,5.230335906855678660e-14
2.373046630828853643e-01,4.799528700350526902e-14
2.374046755844480550e-01,4.296367786986787804e-14
2.375046880860107734e-01,3.759285201721164324e-14
2.376047005875734641e-01,3.222351469929746771e-14
2.377047130891361548e-01,2.713724244331507388e-14
2.378047255906988455e-01,2.254803134935640491e-14
2.379047380922615362e-01,1.860096016171806805e-14
2.380047505938242547e-01,1.537800973999773600e-14
2.381047630953869176e-01,1.288671253912619401e-14
2.382047755969496361e-01,1.103317727313530917e-14
2.383047880985123268e-01,9.722664445681276933e-15
2.384048006000750175e-01,8.883193539090924625e-15
2.385048131016377082e-01,8.467137097348600922e-15
2.386048256032003989e-01,8.452812153454712001e-15
2.387048381047631174e-01,8.846078388199949437e-15
2.388048506063258081e-01,9.681959444282517746e-15
2.389048631078884988e-01,1.102630343222072341e-14
2.390048756094511895e-01,1.297749738378933717e-14
