wavelength ,transmission
2600,62.44202423
2599,62.34190369
2598,62.22427368
2597,61.9945755
2596,61.79651642
2595,61.51652908
2594,61.33459091
2593,61.00078964
2592,60.72208786
2591,60.45604324
2590,60.2266655
2589,59.90956497
2588,59.60869217
2587,59.31449509
2586,59.02041245
2585,58.77975845
2584,58.48931503
2583,58.19432831
2582,57.92486191
2581,57.77660751
2580,57.5127182
2579,57.28400803
2578,57.11572266
2577,57.06791687
2576,57.04530334
2575,56.87265396
2574,56.87731934
2573,56.73745346
2572,56.66006851
2571,56.52340698
2570,56.45733643
2569,56.39659119
2568,56.2547226
2567,56.1842308
2566,56.10349655
2565,55.85464859
2564,55.81473541
2563,55.70121002
2562,55.59723282
2561,55.49710464
2560,55.38933945
2559,55.32247925
2558,55.19864655
2557,55.23933029
2556,55.10990524
2555,55.12617874
2554,55.04792404
2553,55.12131882
2552,55.02949905
2551,55.08740997
2550,55.14236069
2549,55.1067276
2548,55.07369232
2547,55.09946442
2546,55.17815399
2545,55.06969833
2544,55.01524734
2543,54.99310303
2542,54.94884872
2541,54.91333771
2540,54.81186676
2539,54.7040329
2538,54.63136292
2537,54.42705917
2536,54.36171722
2535,54.109375
2534,53.88496017
2533,53.7052269
2532,53.54686356
2531,53.27481461
2530,52.986866
2529,52.77323914
2528,52.50006866
2527,52.23464203
2526,51.98457336
2525,51.72000504
2524,51.42987442
2523,51.24248886
2522,50.98402405
2521,50.6636734
2520,50.49069595
2519,50.32513809
2518,50.09894943
2517,49.82551575
2516,49.69566345
2515,49.61461639
2514,49.51316071
2513,49.41590881
2512,49.40298462
2511,49.34587097
2510,49.38117981
2509,49.47271347
2508,49.51087189
2507,49.55932617
2506,49.69369125
2505,49.80910873
2504,49.8911705
2503,49.9787941
2502,50.25165558
2501,50.23355484
2500,50.36956024
2499,50.55329895
2498,50.59181595
2497,50.68664551
2496,50.82005692
2495,50.89146042
2494,50.90177536
2493,50.94958115
2492,51.0350647
2491,51.03179932
2490,51.090271
2489,51.11750793
2488,51.19254684
2487,51.24548721
2486,51.26132965
2485,51.34048462
2484,51.22730637
2483,51.2702179
2482,51.23197556
2481,51.05421066
2480,50.85947037
2479,50.62049103
2478,50.2824707
2477,49.93062592
2476,49.49827194
2475,49.07915497
2474,48.51156235
2473,47.97436142
2472,47.41207504
2471,46.85797501
2470,46.28870392
2469,45.72708511
2468,45.06301498
2467,44.48629761
2466,44.05754089
2465,43.56672287
2464,43.19221115
2463,43.0336647
2462,42.88330841
2461,42.79221725
2460,42.99243546
2459,43.17453384
2458,43.47907639
2457,43.95606995
2456,44.4446106
2455,44.96487427
2454,45.45779419
2453,46.07312775
2452,46.61480331
2451,47.17873764
2450,47.82091904
2449,48.43516922
2448,49.09286118
2447,49.72148132
2446,50.39192581
2445,51.04468918
2444,51.75352859
2443,52.37030792
2442,53.01796341
2441,53.64388657
2440,54.05272675
2439,54.55363846
2438,54.98997498
2437,55.41645432
2436,55.62239838
2435,55.93648529
2434,56.2288475
2433,56.41705322
2432,56.59698868
2431,56.77497482
2430,56.91725159
2429,57.0141449
2428,57.1310997
2427,57.22372055
2426,57.37247467
2425,57.36411285
2424,57.39498901
2423,57.37562943
2422,57.46554184
2421,57.46995163
2420,57.36936188
2419,57.43795013
2418,57.36190033
2417,57.24858475
2416,57.19818878
2415,57.1163063
2414,56.87966919
2413,56.8872757
2412,56.6692009
2411,56.44866943
2410,56.29475784
2409,56.06470871
2408,55.80696487
2407,55.60531616
2406,55.41913605
2405,55.14399338
2404,55.0365448
2403,55.08538055
2402,54.99282455
2401,55.07546234
2400,55.19335938
2399,55.25380325
2398,55.3690033
2397,55.58755875
2396,55.746521
2395,55.90468216
2394,56.11457062
2393,56.25995255
2392,56.36910629
2391,56.59457397
2390,56.74520111
2389,56.80611801
2388,56.98756409
2387,57.11790848
2386,57.24609375
2385,57.44900131
2384,57.58330154
2383,57.68483353
2382,57.81745148
2381,57.91222
2380,57.955616
2379,58.01718903
2378,58.00298309
2377,57.97861862
2376,58.06606293
2375,57.8782692
2374,57.801651
2373,57.81829834
2372,57.71485138
2371,57.67432404
2370,57.55265808
2369,57.53266144
2368,57.49259567
2367,57.38402557
2366,57.40172958
2365,57.30877686
2364,57.42421722
2363,57.33684921
2362,57.37960815
2361,57.53603745
2360,57.50998688
2359,57.54945374
2358,57.54095459
2357,57.53255463
2356,57.4983902
2355,57.45837021
2354,57.28915405
2353,57.19994354
2352,57.09548187
2351,56.96871948
2350,56.92166138
2349,56.92353821
2348,56.79747009
2347,56.78706741
2346,56.77319336
2345,56.69869232
2344,56.68967438
2343,56.69039917
2342,56.56184387
2341,56.57183456
2340,56.45094681
2339,56.32714462
2338,56.10190582
2337,55.97595978
2336,55.6818428
2335,55.38145828
2334,55.14315796
2333,54.70783234
2332,54.34012604
2331,54.02331924
2330,53.59563828
2329,53.1837883
2328,52.88346863
2327,52.33062363
2326,51.84923935
2325,51.45376968
2324,50.92501831
2323,50.31121445
2322,49.74295044
2321,49.13414764
2320,48.45339203
2319,47.91571045
2318,47.40014267
2317,46.96445465
2316,46.67837906
2315,46.48540115
2314,46.33065414
2313,46.44841766
2312,46.4850769
2311,46.58369064
2310,46.73540115
2309,46.96741867
2308,47.07146454
2307,47.24848938
2306,47.33160019
2305,47.4073143
2304,47.53487778
2303,47.54216385
2302,47.62558365
2301,47.75660706
2300,47.84807968
2299,47.92071152
2298,48.12485886
2297,48.22979355
2296,48.40749741
2295,48.63667297
2294,48.77594376
2293,48.98751068
2292,49.20078659
2291,49.35871506
2290,49.52497101
2289,49.7248764
2288,49.9002533
2287,50.12670898
2286,50.3083992
2285,50.55054474
2284,50.70573044
2283,50.85613251
2282,51.02484131
2281,51.15065765
2280,51.25698471
2279,51.29541779
2278,51.45298767
2277,51.56616592
2276,51.59757614
2275,51.73985291
2274,52.07066345
2273,52.26045227
2272,52.66353989
2271,53.15758133
2270,53.6746788
2269,54.26356888
2268,54.90187454
2267,55.58988953
2266,56.27158737
2265,57.00551987
2264,57.69789124
2263,58.45503235
2262,59.15547562
2261,59.82873917
2260,60.50199127
2259,61.13107681
2258,61.86268997
2257,62.49113083
2256,63.17963409
2255,63.77271271
2254,64.34109497
2253,64.95866394
2252,65.48388672
2251,66.0803833
2250,66.48976135
2249,67.1067276
2248,67.53244019
2247,67.89704895
2246,68.4135437
2245,68.72524261
2244,69.009758
2243,69.37622833
2242,69.74208832
2241,69.98542786
2240,70.25138092
2239,70.49591827
2238,70.60224915
2237,70.82531738
2236,71.04305267
2235,71.27656555
2234,71.49705505
2233,71.54997253
2232,71.89067078
2231,72.07245636
2230,72.27336121
2229,72.63514709
2228,72.8813858
2227,73.09669495
2226,73.40642548
2225,73.62041473
2224,73.88132477
2223,74.08907318
2222,74.31167603
2221,74.54927826
2220,74.53951263
2219,74.59015656
2218,74.65664673
2217,74.5947876
2216,74.61611176
2215,74.53382111
2214,74.41220856
2213,74.4697113
2212,74.3385849
2211,74.37775421
2210,74.36424255
2209,74.26931
2208,74.42066193
2207,74.54018402
2206,74.70101929
2205,74.84499359
2204,75.02094269
2203,75.32900238
2202,75.47523499
2201,75.70205688
2200,75.87210846
2199,75.96586609
2198,76.22257233
2197,76.21182251
2196,76.37431335
2195,76.42708588
2194,76.47147369
2193,76.48864746
2192,76.49803162
2191,76.39189148
2190,76.47719574
2189,76.56945038
2188,76.64105225
2187,76.80439758
2186,76.97103882
2185,77.01461792
2184,77.06468964
2183,77.18347931
2182,77.31545258
2181,77.48329926
2180,77.39035034
2179,77.42938995
2178,77.34671021
2177,77.19813538
2176,76.94826508
2175,76.70539093
2174,76.39952087
2173,75.88548279
2172,75.28715515
2171,74.68499756
2170,73.89797211
2169,73.18895721
2168,72.37316132
2167,71.72120667
2166,71.02333069
2165,70.4853363
2164,70.1316452
2163,69.91046906
2162,69.91949463
2161,70.09157562
2160,70.26715088
2159,70.65020752
2158,71.01978302
2157,71.47037506
2156,71.77689362
2155,72.14645386
2154,72.46056366
2153,72.75147247
2152,72.93922424
2151,73.13920593
2150,73.10149384
2149,73.10483551
2148,73.01777649
2147,72.81666565
2146,72.56290436
2145,72.20340729
2144,71.81365204
2143,71.39291382
2142,70.92371368
2141,70.50885773
2140,69.98231506
2139,69.57905579
2138,69.17562866
2137,68.9761734
2136,68.78543854
2135,68.77275085
2134,68.78568268
2133,68.99386597
2132,69.3404007
2131,69.5390625
2130,69.95669556
2129,70.30516052
2128,70.4855423
2127,70.73646545
2126,70.89668274
2125,71.01277161
2124,71.01644135
2123,71.08683777
2122,71.01550293
2121,71.04105377
2120,71.01294708
2119,70.95444489
2118,70.97760773
2117,70.95812225
2116,70.95459747
2115,70.83986664
2114,70.83045197
2113,70.74850464
2112,70.7318573
2111,70.60597229
2110,70.65872192
2109,70.69178772
2108,70.56603241
2107,70.61332703
2106,70.51678467
2105,70.49998474
2104,70.47799683
2103,70.47781372
2102,70.45640564
2101,70.4746933
2100,70.46769714
2099,70.39659882
2098,70.44572449
2097,70.50896454
2096,70.43579102
2095,70.51708984
2094,70.50098419
2093,70.58123016
2092,70.58089447
2091,70.72006226
2090,70.77560425
2089,70.87715149
2088,70.96222687
2087,70.97703552
2086,71.11186218
2085,71.21942902
2084,71.37967682
2083,71.59482574
2082,71.65914154
2081,71.93605804
2080,71.99994659
2079,72.17937469
2078,72.44062805
2077,72.59959412
2076,72.94419098
2075,73.05954742
2074,73.29644775
2073,73.56443024
2072,73.75736237
2071,74.06794739
2070,74.19670105
2069,74.51791382
2068,74.79497528
2067,75.04061127
2066,75.32884979
2065,75.56848145
2064,75.78426361
2063,76.07975006
2062,76.32671356
2061,76.69056702
2060,76.88825989
2059,77.2182312
2058,77.41201019
2057,77.7093277
2056,77.97251892
2055,78.28855133
2054,78.56434631
2053,78.8972702
2052,79.09246826
2051,79.34052277
2050,79.52516937
2049,79.90319061
2048,80.11781311
2047,80.39041901
2046,80.54524994
2045,80.9681778
2044,81.21585083
2043,81.37884521
2042,81.6318512
2041,81.8711319
2040,82.17996216
2039,82.44785309
2038,82.64125824
2037,82.89561462
2036,83.20735931
2035,83.41360474
2034,83.61885834
2033,83.93287659
2032,84.0329361
2031,84.21543884
2030,84.34609985
2029,84.61345673
2028,84.7522049
2027,84.91136169
2026,85.04424286
2025,85.18361664
2024,85.35153961
2023,85.44863129
2022,85.65631104
2021,85.79164886
2020,85.81985474
2019,85.85552216
2018,85.9126358
2017,86.08087921
2016,86.01322174
2015,86.0777359
2014,86.18440247
2013,86.14214325
2012,86.20018005
2011,86.09626007
2010,86.08099365
2009,86.05221558
2008,86.07997894
2007,85.99887848
2006,85.82517242
2005,85.83052063
2004,85.71827698
2003,85.58032227
2002,85.44260406
2001,85.38366699
2000,85.23722839
1999,85.09439087
1998,84.96995544
1997,84.81660461
1996,84.6317749
1995,84.35760498
1994,84.17608643
1993,83.91892242
1992,83.90005493
1991,83.65927887
1990,83.35025024
1989,83.13745117
1988,82.98159027
1987,82.78081512
1986,82.39472198
1985,82.27861786
1984,82.03141022
1983,81.73731232
1982,81.54407501
1981,81.30751038
1980,80.96016693
1979,80.71018219
1978,80.3912735
1977,80.20975494
1976,79.98970032
1975,79.71237183
1974,79.55389404
1973,79.20633698
1972,78.980896
1971,78.76173401
1970,78.57256317
1969,78.3398056
1968,78.12690735
1967,77.85610199
1966,77.59443665
1965,77.40434265
1964,77.22872925
1963,77.04717255
1962,76.81623077
1961,76.72975922
1960,76.53444672
1959,76.36053467
1958,76.248909
1957,76.05701447
1956,75.93534088
1955,75.81855774
1954,75.74594879
1953,75.56643677
1952,75.56412506
1951,75.40810394
1950,75.29950714
1949,75.21720886
1948,75.0901413
1947,75.05992889
1946,75.07062531
1945,75.00440216
1944,74.90907288
1943,74.87992859
1942,74.95279694
1941,74.98554993
1940,74.94979858
1939,75.07041931
1938,75.014534
1937,75.09934235
1936,75.10786438
1935,75.21043396
1934,75.23705292
1933,75.36683655
1932,75.46553802
1931,75.62271881
1930,75.74497986
1929,75.86682892
1928,76.0042572
1927,76.20896149
1926,76.29343414
1925,76.50144958
1924,76.66294098
1923,76.88916016
1922,77.1515274
1921,77.36049652
1920,77.56948853
1919,77.84274292
1918,77.9845047
1917,78.25759888
1916,78.52604675
1915,78.80702972
1914,78.91172028
1913,79.39997864
1912,79.6089325
1911,79.95037079
1910,80.15692902
1909,80.58421326
1908,80.81828308
1907,81.03586578
1906,81.3345871
1905,81.73610687
1904,82.06323242
1903,82.4338913
1902,82.64492035
1901,83.07688141
1900,83.37106323
1899,83.61994171
1898,83.93417358
1897,84.39825439
1896,84.57894897
1895,84.8693161
1894,85.18688202
1893,85.52636719
1892,85.77126312
1891,86.05669403
1890,86.13595581
1889,86.5737381
1888,86.74460602
1887,86.99806213
1886,87.17311096
1885,87.34940338
1884,87.48799896
1883,87.59726715
1882,87.79374695
1881,87.99552917
1880,88.0149765
1879,88.0785675
1878,88.17308807
1877,88.2672348
1876,88.24887848
1875,88.2828064
1874,88.1558609
1873,88.24508667
1872,88.1557312
1871,87.91286469
1870,87.83229828
1869,87.82357788
1868,87.55699158
1867,87.44135284
1866,87.30538177
1865,87.12486267
1864,86.82707214
1863,86.7144928
1862,86.29853821
1861,86.22798157
1860,85.85649872
1859,85.51972961
1858,85.18383026
1857,84.92208099
1856,84.58693695
1855,84.29027557
1854,83.83744049
1853,83.42741394
1852,83.05942535
1851,82.63269806
1850,82.26147461
1849,81.92461395
1848,81.48423767
1847,81.07427979
1846,80.64168549
1845,80.14727783
1844,79.74880981
1843,79.41520691
1842,79.05610657
1841,78.63609314
1840,78.12020111
1839,77.84646606
1838,77.34669495
1837,76.96595764
1836,76.52797699
1835,76.17225647
1834,75.83113098
1833,75.41806793
1832,75.10153198
1831,74.80510712
1830,74.39825439
1829,74.13114166
1828,73.75245667
1827,73.45653534
1826,73.29763031
1825,72.91886902
1824,72.66529083
1823,72.40802765
1822,72.29039001
1821,72.08261871
1820,71.82276154
1819,71.69174957
1818,71.53070831
1817,71.26915741
1816,71.23085785
1815,71.10483551
1814,71.06076813
1813,70.97913361
1812,70.89624023
1811,70.80127716
1810,70.8740921
1809,70.83649445
1808,70.82077789
1807,70.85321808
1806,70.85453033
1805,70.87921906
1804,70.93219757
1803,71.08544922
1802,71.09635162
1801,71.35791016
1800,71.46406555
1799,71.60448456
1798,71.79660034
1797,71.92688751
1796,72.24250031
1795,72.38327789
1794,72.64570618
1793,72.85728455
1792,73.10438538
1791,73.37704468
1790,73.63146973
1789,73.97170258
1788,74.35613251
1787,74.6316452
1786,75.08017731
1785,75.32788086
1784,75.77318573
1783,76.09375
1782,76.35567474
1781,76.80329895
1780,77.21282959
1779,77.60137177
1778,77.91751099
1777,78.29839325
1776,78.75572205
1775,79.03408813
1774,79.43426514
1773,79.8392868
1772,80.19239044
1771,80.63056183
1770,80.97109985
1769,81.42004395
1768,81.8218689
1767,82.31774902
1766,82.63418579
1765,83.1565094
1764,83.45142365
1763,83.87520599
1762,84.30260468
1761,84.73255157
1760,84.96955872
1759,85.39962006
1758,85.61048126
1757,85.86378479
1756,86.12328339
1755,86.19261932
1754,86.23960876
1753,86.28147888
1752,86.28496552
1751,86.22982788
1750,86.24446106
1749,86.18058777
1748,85.89926147
1747,85.79431152
1746,85.45595551
1745,85.08579254
1744,84.73271942
1743,84.42119598
1742,83.87640381
1741,83.5229187
1740,83.00053406
1739,82.52039337
1738,82.112854
1737,81.62069702
1736,81.0978775
1735,80.6710434
1734,80.2853775
1733,79.79986572
1732,79.33483887
1731,78.82672119
1730,78.37702179
1729,77.83230591
1728,77.35978699
1727,76.78756714
1726,76.28826141
1725,75.64324951
1724,75.09467316
1723,74.50309753
1722,73.89579773
1721,73.34351349
1720,72.89204407
1719,72.4056778
1718,71.92726135
1717,71.45659637
1716,70.95883942
1715,70.5136261
1714,70.09804535
1713,69.7348175
1712,69.26264191
1711,68.68867493
1710,68.28830719
1709,67.75972748
1708,67.42786407
1707,66.86074066
1706,66.35476685
1705,65.90722656
1704,65.52607727
1703,65.1089325
1702,64.71569061
1701,64.34026337
1700,64.04524231
1699,63.93793869
1698,63.79206085
1697,63.8094902
1696,63.88673782
1695,63.84140778
1694,63.93635178
1693,63.9006958
1692,63.87969208
1691,63.88642883
1690,63.90066147
1689,64.00834656
1688,64.21191406
1687,64.52213287
1686,64.86312866
1685,65.20549774
1684,65.66397858
1683,66.11643982
1682,66.63658905
1681,67.0958786
1680,67.45606995
1679,67.88679504
1678,68.07712555
1677,68.30645752
1676,68.60188293
1675,68.86922455
1674,69.18505096
1673,69.46780396
1672,69.75578308
1671,70.15499878
1670,70.72823334
1669,71.29269409
1668,72.11634064
1667,73.00257874
1666,73.95956421
1665,75.04190063
1664,76.14177704
1663,77.19450378
1662,78.30795288
1661,79.39385986
1660,80.27003479
1659,81.16998291
1658,82.08338165
1657,83.00627136
1656,83.65215302
1655,84.42910004
1654,85.13011932
1653,85.54438782
1652,86.0814743
1651,86.50184631
1650,86.91745758
1649,87.40549469
1648,87.65887451
1647,87.86540222
1646,88.17777252
1645,88.44763947
1644,88.70378113
1643,88.79364014
1642,88.87799072
1641,88.85020447
1640,88.76894379
1639,88.7302475
1638,88.42230225
1637,88.12741089
1636,87.73311615
1635,87.27938843
1634,86.87159729
1633,86.29444885
1632,85.66719055
1631,85.03549957
1630,84.3948822
1629,83.7155304
1628,83.02184296
1627,82.17223358
1626,81.39126587
1625,80.62149048
1624,79.77013397
1623,78.82054138
1622,77.94387054
1621,77.22486115
1620,76.26589966
1619,75.39927673
1618,74.62104034
1617,73.82968903
1616,73.04772186
1615,72.18265533
1614,71.48827362
1613,70.77015686
1612,70.01094055
1611,69.33023834
1610,68.73758698
1609,68.05725861
1608,67.3782959
1607,66.82583618
1606,66.32298279
1605,65.80169678
1604,65.30710602
1603,64.98397827
1602,64.57823181
1601,64.24617004
1600,63.93272781
1599,63.62520599
1598,63.3967514
1597,63.23083115
1596,62.99628448
1595,62.96210861
1594,62.89039993
1593,62.84124374
1592,62.90764236
1591,62.93724823
1590,62.95104218
1589,63.15623474
1588,63.30477142
1587,63.4693222
1586,63.76538086
1585,64.12018585
1584,64.39607239
1583,64.84207153
1582,65.25062561
1581,65.8547821
1580,66.33881378
1579,66.89763641
1578,67.54482269
1577,68.16036987
1576,68.79453278
1575,69.54866028
1574,70.34088135
1573,71.13690186
1572,71.95543671
1571,72.83481598
1570,73.76195526
1569,74.62700653
1568,75.65343475
1567,76.55891418
1566,77.54181671
1565,78.52886963
1564,79.43559265
1563,80.33407593
1562,81.51464844
1561,82.51665497
1560,83.34033966
1559,84.19615173
1558,84.98287201
1557,85.80911255
1556,86.54969025
1555,87.2148056
1554,87.80715179
1553,88.30173492
1552,88.70107269
1551,88.95823669
1550,89.27404022
1549,89.36414337
1548,89.36075592
1547,89.14154053
1546,88.8691864
1545,88.59980011
1544,88.17079926
1543,87.74571991
1542,87.16971588
1541,86.39879608
1540,85.57510376
1539,84.81154633
1538,83.90390015
1537,82.89085388
1536,81.83338928
1535,80.87361908
1534,79.64141846
1533,78.45536804
1532,77.39117432
1531,76.2781601
1530,75.014534
1529,73.76914978
1528,72.55865479
1527,71.54512024
1526,70.3907547
1525,69.15614319
1524,68.11640167
1523,67.01692963
1522,66.03890991
1521,65.17966461
1520,64.21788788
1519,63.4011879
1518,62.56331635
1517,61.7396698
1516,61.08269119
1515,60.44871902
1514,59.84817886
1513,59.23830414
1512,58.74146652
1511,58.31304932
1510,57.87159348
1509,57.50387955
1508,57.21158981
1507,57.02909088
1506,56.86500549
1505,56.73725128
1504,56.65516663
1503,56.61050034
1502,56.72126007
1501,56.77124786
1500,56.95919418
1499,57.14628601
1498,57.40864944
1497,57.70743942
1496,58.12698746
1495,58.65711594
1494,59.22602844
1493,59.71362686
1492,60.44465256
1491,61.20001221
1490,61.98944855
1489,62.8723259
1488,63.75643158
1487,64.69915771
1486,65.79972076
1485,66.91786957
1484,68.10925293
1483,69.25041962
1482,70.64346313
1481,71.77874756
1480,73.1822052
1479,74.55631256
1478,75.95358276
1477,77.28885651
1476,78.68054199
1475,79.97676086
1474,81.32328033
1473,82.58966827
1472,83.84806824
1471,85.0065918
1470,86.0050354
1469,86.78585815
1468,87.60303497
1467,88.10648346
1466,88.58120728
1465,88.87693787
1464,89.09755707
1463,88.80901337
1462,88.39178467
1461,87.80499268
1460,87.04536438
1459,86.13380432
1458,85.17229462
1457,84.0019989
1456,82.66320801
1455,81.18977356
1454,79.64206696
1453,77.93689728
1452,76.33391571
1451,74.66049194
1450,72.93688965
1449,71.13621521
1448,69.45465851
1447,67.75634003
1446,66.11167908
1445,64.54309082
1444,63.06565475
1443,61.52663803
1442,60.26462936
1441,58.88381195
1440,57.5480957
1439,56.40275574
1438,55.33605194
1437,54.24594879
1436,53.33791351
1435,52.40615082
1434,51.63285065
1433,50.96099854
1432,50.3789444
1431,49.79387665
1430,49.32429886
1429,48.96585083
1428,48.67871857
1427,48.48694611
1426,48.39636612
1425,48.33385468
1424,48.43291473
1423,48.59365082
1422,48.86332703
1421,49.18058014
1420,49.63645554
1419,50.16171265
1418,50.76729202
