wavelength,transmission
0.5,14.290255545
0.501,15.29339552
0.502,16.32325363
0.503,17.38530445
0.504,18.444706915
0.505,19.52436066
0.506,20.55771637
0.507,21.558981895
0.508,22.54547405
0.509,23.503870965
0.51,24.388616565
0.511,25.241147045
0.512,26.063919065
0.513,26.84771633
0.514,27.646876335
0.515,28.39680958
0.516,29.214272495
0.517,30.019908905
0.518,30.88814831
0.519,31.737686155
0.52,32.606494905
0.521,33.42174339
0.522,34.26307297
0.523,35.061317445
0.524,35.81887245
0.525,36.595932005
0.526,37.307873725
0.527,38.057520865
0.528,38.792840005
0.529,39.496260645
0.53,40.233421325
0.531,40.92978191
0.532,41.612086295
0.533,42.285339355
0.534,42.908023835
0.535,43.50420952
0.536,44.047819135
0.537,44.52558899
0.538,44.95645714
0.539,45.348155975
0.54,45.64980698
0.541,45.90181732
0.542,46.072452545
0.543,46.222530365
0.544,46.29409981
0.545,46.29694176
0.546,46.32480812
0.547,46.28523445
0.548,46.258823395
0.549,46.18072319
0.55,46.123493195
0.551,46.04876709
0.552,45.98243332
0.553,45.935600285
0.554,45.88414192
0.555,45.89053726
0.556,45.876564025
0.557,45.9239769
0.558,45.984132765
0.559,46.040273665
0.56,46.14034462
0.561,46.257331845
0.562,46.41821289
0.563,46.56847
0.564,46.754678725
0.565,46.93092537
0.566,47.104032515
0.567,47.3129406
0.568,47.530405045
0.569,47.749206545
0.57,47.92987633
0.571,48.12421608
0.572,48.321084975
0.573,48.45822525
0.574,48.62170982
0.575,48.73957443
0.576,48.85033226
0.577,48.970136645
0.578,49.049100875
0.579,49.09497261
0.58,49.133089065
0.581,49.131786345
0.582,49.13801193
0.583,49.114088055
0.584,49.06409836
0.585,49.009960175
0.586,48.94436455
0.587,48.822364805
0.588,48.705999375
0.589,48.558767315
0.59,48.407884595
0.591,48.191993715
0.592,47.97794342
0.593,47.73334694
0.594,47.44146538
0.595,47.12861824
0.596,46.801076885
0.597,46.43172264
0.598,46.02956009
0.599,45.59185791
0.6,45.10473442
0.601,44.608701705
0.602,44.08113861
0.603,43.52840042
0.604,42.98357582
0.605,42.377653125
0.606,41.79261589
0.607,41.18107796
0.608,40.56610775
0.609,39.970956805
0.61,39.373717305
0.611,38.78898716
0.612,38.2086153
0.613,37.639463425
0.614,37.11999798
0.615,36.615329745
0.616,36.131977085
0.617,35.68501568
0.618,35.26664543
0.619,34.88519001
0.62,34.529929165
0.621,34.21434212
0.622,33.956023215
0.623,33.736166
0.624,33.5487957
0.625,33.382409095
0.626,33.287208555
0.627,33.208272935
0.628,33.167704585
0.629,33.19918728
0.63,33.244506835
0.631,33.32297516
0.632,33.4709816
0.633,33.62393856
0.634,33.8188467
0.635,34.05917358
0.636,34.28974247
0.637,34.5678196
0.638,34.874085425
0.639,35.15610695
0.64,35.50347042
0.641,35.818855285
0.642,36.123630525
0.643,36.3858366
0.644,36.646309855
0.645,36.856625555
0.646,37.00095463
0.647,37.09497452
0.648,37.118284225
0.649,37.039755825
0.65,36.87752533
0.651,36.6413393
0.652,36.288355825
0.653,35.858665465
0.654,35.352222445
0.655,34.730153085
0.656,34.0655756
0.657,33.32369041
0.658,32.513234135
0.659,31.681461335
0.66,30.776269915
0.661,29.87660551
0.662,28.933755395
0.663,27.9610033
0.664,27.00530243
0.665,26.029946804
0.666,25.0922293655
0.667,24.1453719145
0.668,23.2179944495
0.669,22.3089270605
0.67,21.4281053535
0.671,20.5757167325
0.672,19.752929924
0.673,18.946455478
0.674,18.1959474065
0.675,17.4729523635
0.676,16.778558492
0.677,16.0913312435
0.678,15.445858954
0.679,14.8638638255
0.68,14.2882154
0.681,13.7527848495
0.682,13.231875898
0.683,12.7526067485
0.684,12.297521113
0.685,11.8660032755
0.686,11.463145853
0.687,11.0831171295
0.688,10.708695054
0.689,10.374530195
0.69,10.056994201
0.691,9.756734848
0.692,9.4729734635
0.693,9.199363353
0.694,8.9597826
0.695,8.735548854
0.696,8.4980080725
0.697,8.287932514
0.698,8.084150789
0.699,7.9454923885
0.7,7.7588519475
0.701,7.572968363
0.702,7.419661938
0.703,7.2914153345
0.704,7.134243904
0.705,7.0115396995
0.706,6.9259293085
0.707,6.8074497575
0.708,6.691138805
0.709,6.6117830865
0.71,6.51500702
0.711,6.4400652065
0.712,6.344886722
0.713,6.2781972885
0.714,6.202310143
0.715,6.1319780335
0.716,6.110589685
0.717,6.007771847
0.718,5.9626622215
0.719,5.9286982435
0.72,5.9044943435
0.721,5.846019087
0.722,5.818063022
0.723,5.781904937
0.724,5.7452841425
0.725,5.718531371
0.726,5.687384486
0.727,5.668605985
0.728,5.6534214025
0.729,5.634576023
0.73,5.6140546805
0.731,5.6058374025
0.732,5.614848317
0.733,5.584930954
0.734,5.544908047
0.735,5.613140881
0.736,5.5630480645
0.737,5.5799185635
0.738,5.5684798955
0.739,5.6010725495
0.74,5.558560133
0.741,5.6014520525
0.742,5.5993650555
0.743,5.6153224705
0.744,5.5890829565
0.745,5.577099861
0.746,5.568904103
0.747,5.6169891335
0.748,5.61100501
0.749,5.6404365295
0.75,5.6591050025
0.751,5.663939356
0.752,5.6837646985
0.753,5.695885421
0.754,5.684968173
0.755,5.7497765405
0.756,5.7288271775
0.757,5.77243161
0.758,5.8292414525
0.759,5.819913628
0.76,5.81737685
0.761,5.8747910255
0.762,5.9025953415
0.763,5.9206085775
0.764,5.955696168
0.765,6.0183900015
0.766,6.0016390685
0.767,6.0455915915
0.768,6.06987542
0.769,6.1097831735
0.77,6.110775294
0.771,6.197864292
0.772,6.276878775
0.773,6.297956942
0.774,6.3233118065
0.775,6.3915925615
0.776,6.3827252985
0.777,6.451527892
0.778,6.471922518
0.779,6.564659476
0.78,6.5983230455
0.781,6.694133041
0.782,6.7367543585
0.783,6.741985024
0.784,6.8792175625
0.785,6.911993561
0.786,7.0167274465
0.787,7.054102301
0.788,7.14049655
0.789,7.1700831635
0.79,7.2353528145
0.791,7.348830164
0.792,7.4437624815
0.793,7.529767812
0.794,7.5955203775
0.795,7.7451636785
0.796,7.819825351
0.797,7.9548108565
0.798,7.9770632965
0.799,8.1799892785
0.8,8.2463583945
0.801,8.367759881
0.802,8.455984237
0.803,8.5601426365
0.804,8.7486238505
0.805,8.871556521
0.806,9.039591791
0.807,9.137528298
0.808,9.2867329115
0.809,9.454933047
0.81,9.601379753
0.811,9.7758617395
0.812,9.9589064125
0.813,10.1378414635
0.814,10.2723264705
0.815,10.4821078795
0.816,10.656559587
0.817,10.869902728
0.818,11.093107941
0.819,11.301332473
0.82,11.5141005495
0.821,11.733409048
0.822,11.956235765
0.823,12.2216719395
0.824,12.4732867465
0.825,12.73856199
0.826,13.004322765
0.827,13.248979805
0.828,13.5699764495
0.829,13.8407728645
0.83,14.164386391
0.831,14.4674305935
0.832,14.812029598
0.833,15.133042336
0.834,15.438244103
0.835,15.8067004655
0.836,16.205311774
0.837,16.561148169
0.838,16.944635631
0.839,17.335361241
0.84,17.7245554925
0.841,18.1324629775
0.842,18.568854569
0.843,18.994906186
0.844,19.4579522595
0.845,19.907392501
0.846,20.377661943
0.847,20.8469390875
0.848,21.352560996
0.849,21.8624644255
0.85,22.339962719
0.851,22.8881726245
0.852,23.4251608855
0.853,23.943120005
0.854,24.4988050445
0.855,25.0898337375
0.856,25.638447283
0.857,26.214449885
0.858,26.804404735
0.859,27.40310621
0.86,28.002507205
0.861,28.66546583
0.862,29.282894135
0.863,29.902083875
0.864,30.530127045
0.865,31.161738395
0.866,31.80095863
0.867,32.475782395
0.868,33.161659715
0.869,33.797019005
0.87,34.45428944
0.871,35.14612961
0.872,35.766716
0.873,36.49880314
0.874,37.19784355
0.875,37.84227943
0.876,38.52180767
0.877,39.175747875
0.878,39.817845345
0.879,40.482954025
0.88,41.15184784
0.881,41.79319191
0.882,42.427027705
0.883,43.04813385
0.884,43.648385045
0.885,44.242627145
0.886,44.847075465
0.887,45.422248845
0.888,45.950398445
0.889,46.47125053
0.89,46.979049685
0.891,47.440578465
0.892,47.93240166
0.893,48.369161605
0.894,48.783748625
0.895,49.18916702
0.896,49.550115585
0.897,49.891393665
0.898,50.22839737
0.899,50.534959795
0.9,50.809972765
0.901,51.063642505
0.902,51.294712065
0.903,51.495876315
0.904,51.68083572
0.905,51.846817015
0.906,51.99744225
0.907,52.131082535
0.908,52.228832245
0.909,52.32135391
0.91,52.4120388
0.911,52.48496628
0.912,52.53303909
0.913,52.58065987
0.914,52.613742825
0.915,52.638994215
0.916,52.66195488
0.917,52.67228699
0.918,52.68650055
0.919,52.68612671
0.92,52.696558
0.921,52.683338165
0.922,52.67374611
0.923,52.684108735
0.924,52.669057845
0.925,52.65856171
0.926,52.653015135
0.927,52.64548683
0.928,52.632526395
0.929,52.6376667
0.93,52.62693405
0.931,52.6156044
0.932,52.619386675
0.933,52.625257495
0.934,52.639154435
0.935,52.64079857
0.936,52.647277835
0.937,52.662622455
0.938,52.68291092
0.939,52.706085205
0.94,52.72784424
0.941,52.752708435
0.942,52.77469635
0.943,52.817428585
0.944,52.84775925
0.945,52.88350105
0.946,52.94272041
0.947,52.992553715
0.948,53.02121353
0.949,53.07457352
0.95,53.132616045
0.951,53.18657112
0.952,53.238954545
0.953,53.30367851
0.954,53.36010361
0.955,53.408878325
0.956,53.482437135
0.957,53.543582915
0.958,53.61489105
0.959,53.68009758
0.96,53.74635887
0.961,53.79759407
0.962,53.87231064
0.963,53.949337005
0.964,54.011785505
0.965,54.085006715
0.966,54.14964867
0.967,54.210958485
0.968,54.29434776
0.969,54.34206772
0.97,54.41115761
0.971,54.486255645
0.972,54.539014815
0.973,54.594394685
0.974,54.652902605
0.975,54.70900345
0.976,54.765449525
0.977,54.814470295
0.978,54.87978554
0.979,54.912872315
0.98,54.957746505
0.981,55.00717354
0.982,55.052707675
0.983,55.07893753
0.984,55.12263107
0.985,55.16004372
0.986,55.184801105
0.987,55.21573448
0.988,55.25715637
0.989,55.276506425
0.99,55.30077362
0.991,55.320308685
0.992,55.347644805
0.993,55.364179615
0.994,55.378204345
0.995,55.38809395
0.996,55.408470155
0.997,55.409679415
0.998,55.4066391
0.999,55.424114225
1,55.4201622
1.001,55.425741195
1.002,55.426664355
1.003,55.41592598
1.004,55.4098835
1.005,55.40795898
1.006,55.396795275
1.007,55.37860489
1.008,55.372125625
1.009,55.369750975
1.01,55.354091645
1.011,55.3337822
1.012,55.32126808
1.013,55.303359985
1.014,55.28429985
1.015,55.269260405
1.016,55.246385575
1.017,55.23142242
1.018,55.21455574
1.019,55.18937111
1.02,55.16736031
1.021,55.148721695
1.022,55.13883972
1.023,55.11030769
1.024,55.088050845
1.025,55.078830715
1.026,55.04981041
1.027,55.03947258
1.028,55.017866135
1.029,54.987974165
1.03,54.977178575
1.031,54.969247815
1.032,54.947013855
1.033,54.921834945
1.034,54.913129805
1.035,54.89538574
1.036,54.876144405
1.037,54.862773895
1.038,54.84932327
1.039,54.835863115
1.04,54.834955215
1.041,54.80337906
1.042,54.795593265
1.043,54.799655915
1.044,54.772563935
1.045,54.761846545
1.046,54.76025391
1.047,54.753974915
1.048,54.74679184
1.049,54.74383545
1.05,54.90081406
1.051,54.9295311
1.052,54.932998655
1.053,55.00574684
1.054,54.969543455
1.055,54.962547305
1.056,54.9454155
1.057,54.88348961
1.058,54.945375445
1.059,54.876081465
1.06,54.86643219
1.061,54.892498015
1.062,54.85834122
1.063,54.901449205
1.064,54.872911455
1.065,54.899440765
1.066,54.90684128
1.067,54.851755145
1.068,54.95077705
1.069,54.9470768
1.07,54.945777895
1.071,54.95457077
1.072,54.892663955
1.073,54.917491915
1.074,54.983602525
1.075,54.973394395
1.076,55.00146294
1.077,54.960128785
1.078,54.947257995
1.079,55.013910295
1.08,54.930080415
1.081,54.973911285
1.082,54.982450485
1.083,54.99740219
1.084,55.000091555
1.085,55.035484315
1.086,55.0099411
1.087,54.988897325
1.088,55.04306221
1.089,54.989089965
1.09,54.98161888
1.091,54.97963524
1.092,54.994802475
1.093,55.030328755
1.094,55.022930145
1.095,54.99184799
1.096,55.009902955
1.097,55.042963025
1.098,55.048389435
1.099,55.0358181
1.1,55.059392925
1.101,55.020570755
1.102,55.022382735
1.103,55.07830048
1.104,55.037862775
1.105,55.01676941
1.106,54.976844785
1.107,55.0370636
1.108,54.969861985
1.109,55.01963806
1.11,54.985260005
1.111,54.99681473
1.112,54.960720065
1.113,54.961986545
1.114,54.968036655
1.115,54.95446396
1.116,54.929286955
1.117,54.98788452
1.118,54.94490242
1.119,54.950057985
1.12,54.873804095
1.121,54.87698174
1.122,54.87259674
1.123,54.86208153
1.124,54.85730743
1.125,54.840738295
1.126,54.844070435
1.127,54.82333374
1.128,54.84259796
1.129,54.793676375
1.13,54.77042389
1.131,54.763492585
1.132,54.73389244
1.133,54.7288456
1.134,54.70044708
1.135,54.709674835
1.136,54.6831131
1.137,54.70286369
1.138,54.66553688
1.139,54.692726135
1.14,54.612342835
1.141,54.61100578
1.142,54.638256075
1.143,54.585741045
1.144,54.579833985
1.145,54.54104805
1.146,54.586727145
1.147,54.58612251
1.148,54.525178905
1.149,54.49338913
1.15,54.496946335
1.151,54.489686965
1.152,54.4484787
1.153,54.4260273
1.154,54.4191494
1.155,54.44054985
1.156,54.423446655
1.157,54.435121535
1.158,54.379621505
1.159,54.37814903
1.16,54.379396435
1.161,54.355342865
1.162,54.36504173
1.163,54.33304596
1.164,54.326179505
1.165,54.310073855
1.166,54.312088015
1.167,54.28575134
1.168,54.2855072
1.169,54.280008315
1.17,54.29547119
1.171,54.25888252
1.172,54.287769315
1.173,54.275527955
1.174,54.265682225
1.175,54.289369585
1.176,54.2888813
1.177,54.26702881
1.178,54.24572182
1.179,54.277189255
1.18,54.271310805
1.181,54.25638771
1.182,54.278268815
1.183,54.265338895
1.184,54.343303685
1.185,54.235816955
1.186,54.323461535
1.187,54.331554415
1.188,54.279455185
1.189,54.286800385
1.19,54.266584395
1.191,54.28013611
1.192,54.34132004
1.193,54.318735125
1.194,54.34968185
1.195,54.32801247
1.196,54.319379805
1.197,54.3487072
1.198,54.357341765
1.199,54.37364006
1.2,54.395944595
1.201,54.39432716
1.202,54.355363845
1.203,54.41318512
1.204,54.37940407
1.205,54.42938614
1.206,54.4504261
1.207,54.39761734
1.208,54.43683815
1.209,54.472150805
1.21,54.509141925
1.211,54.526058195
1.212,54.55462265
1.213,54.528974535
1.214,54.515073775
1.215,54.57279205
1.216,54.567056655
1.217,54.56665993
1.218,54.64082527
1.219,54.647584915
1.22,54.629869465
1.221,54.63872528
1.222,54.683063505
1.223,54.67511177
1.224,54.7261219
1.225,54.675733565
1.226,54.760168075
1.227,54.74110031
1.228,54.74169922
1.229,54.774038315
1.23,54.792032245
1.231,54.823509215
1.232,54.81972504
1.233,54.83382988
1.234,54.87192917
1.235,54.898822785
1.236,54.89141464
1.237,54.92596245
1.238,54.89221382
1.239,54.953619005
1.24,54.95523262
1.241,54.977336885
1.242,54.99408722
1.243,55.027393345
1.244,54.968502045
1.245,55.033151625
1.246,55.024253845
1.247,55.03321457
1.248,55.062994
1.249,55.04087448
1.25,55.066329955
1.251,55.07773209
1.252,55.07577896
1.253,55.111166
1.254,55.08687973
1.255,55.094270705
1.256,55.143291475
1.257,55.140766145
1.258,55.095096585
1.259,55.136074065
1.26,55.10965347
1.261,55.15430069
1.262,55.141513825
1.263,55.154994965
1.264,55.136419295
1.265,55.13804245
1.266,55.12365341
1.267,55.186872485
1.268,55.15989685
1.269,55.16557312
1.27,55.1969223
1.271,55.18503952
1.272,55.19860649
1.273,55.16218948
1.274,55.154115675
1.275,55.14196968
1.276,55.13658142
1.277,55.14055443
1.278,55.150629045
1.279,55.139463425
1.28,55.090198515
1.281,55.155546185
1.282,55.13002968
1.283,55.110227585
1.284,55.10246849
1.285,55.092897415
1.286,55.06408119
1.287,55.06706047
1.288,55.052101135
1.289,55.041870115
1.29,55.013864515
1.291,55.03086853
1.292,54.97210884
1.293,54.96094704
1.294,54.951173785
1.295,54.953395845
1.296,54.94342613
1.297,54.89680672
1.298,54.901945115
1.299,54.86002159
1.3,54.82679558
1.301,54.84500694
1.302,54.79607773
1.303,54.835790635
1.304,54.77321243
1.305,54.797216415
1.306,54.756649015
1.307,54.726606365
1.308,54.71628952
1.309,54.68585777
1.31,54.64647865
1.311,54.65727997
1.312,54.61013031
1.313,54.6113739
1.314,54.57567215
1.315,54.52523041
1.316,54.49564743
1.317,54.45548439
1.318,54.4671936
1.319,54.475818635
1.32,54.413389205
1.321,54.327558515
1.322,54.351263045
1.323,54.34406662
1.324,54.30174255
1.325,54.29047394
1.326,54.216526035
1.327,54.270021435
1.328,54.22846794
1.329,54.17010307
1.33,54.167087555
1.331,54.1228447
1.332,54.111427305
1.333,54.070596695
1.334,54.057058335
1.335,54.02814293
1.336,53.997106555
1.337,53.941926955
1.338,53.93263245
1.339,53.894340515
1.34,53.86754799
1.341,53.85218048
1.342,53.838609695
1.343,53.801794055
1.344,53.75181961
1.345,53.733854295
1.346,53.72815323
1.347,53.70347214
1.348,53.673908235
1.349,53.6624012
1.35,53.634422305
1.351,53.576250075
1.352,53.57803345
1.353,53.546678545
1.354,53.50265884
1.355,53.493328095
1.356,53.44188118
1.357,53.44883728
1.358,53.419384005
1.359,53.37529945
1.36,53.396303175
1.361,53.37320328
1.362,53.341831205
1.363,53.289850235
1.364,53.304113385
1.365,53.25843239
1.366,53.233346935
1.367,53.256298065
1.368,53.225023265
1.369,53.21015167
1.37,53.18284988
1.371,53.152748105
1.372,53.14102745
1.373,53.140972135
1.374,53.14704895
1.375,53.110977175
1.376,53.09002495
1.377,53.070825575
1.378,53.03592873
1.379,53.021570205
1.38,53.014074325
1.381,53.01971817
1.382,52.965585705
1.383,53.011871335
1.384,52.972148895
1.385,52.91640854
1.386,52.95375252
1.387,52.92113495
1.388,52.91309929
1.389,52.952344895
1.39,52.935411455
1.391,52.88776016
1.392,52.897483825
1.393,52.876960755
1.394,52.865615845
1.395,52.8724823
1.396,52.871276855
1.397,52.87436485
1.398,52.829730985
1.399,52.843063355
1.4,52.84168434
1.401,52.84620285
1.402,52.819288255
1.403,52.83558273
1.404,52.83781815
1.405,52.83504677
1.406,52.83289528
1.407,52.86141777
1.408,52.847717285
1.409,52.845005035
1.41,52.83997536
1.411,52.831546785
1.412,52.82931328
1.413,52.85978127
1.414,52.87064171
1.415,52.876996995
1.416,52.85950851
1.417,52.85227585
1.418,52.86964798
1.419,52.867559435
1.42,52.84354019
1.421,52.89830208
1.422,52.92795944
1.423,52.91526222
1.424,52.89087868
1.425,52.936878205
1.426,52.93541336
1.427,52.9344902
1.428,52.9851017
1.429,52.96033859
1.43,52.9714756
1.431,52.967014315
1.432,52.991998675
1.433,53.02589226
1.434,53.02209282
1.435,53.02387047
1.436,53.069265365
1.437,53.059129715
1.438,53.083761215
1.439,53.089157105
1.44,53.086696625
1.441,53.139722825
1.442,53.11880112
1.443,53.17689896
1.444,53.192050935
1.445,53.181152345
1.446,53.20700836
1.447,53.24779892
1.448,53.23091316
1.449,53.26731491
1.45,53.29166794
1.451,53.27960968
1.452,53.31415367
1.453,53.331947325
1.454,53.358343125
1.455,53.3592186
1.456,53.430194855
1.457,53.410217285
1.458,53.439393995
1.459,53.442695615
1.46,53.451156615
1.461,53.505502705
1.462,53.534152985
1.463,53.545114515
1.464,53.55731201
1.465,53.57317734
1.466,53.59954071
1.467,53.656579975
1.468,53.65120506
1.469,53.66500473
1.47,53.70436096
1.471,53.760190965
1.472,53.778209685
1.473,53.770837785
1.474,53.79227257
1.475,53.814130785
1.476,53.815494535
1.477,53.83805275
1.478,53.88741493
1.479,53.91399384
1.48,53.899110795
1.481,53.96773529
1.482,53.97794342
1.483,54.008174895
1.484,54.01239967
1.485,54.028823855
1.486,54.07199478
1.487,54.08280754
1.488,54.1329174
1.489,54.15132713
1.49,54.18894768
1.491,54.173841475
1.492,54.190336225
1.493,54.19503212
1.494,54.27443504
1.495,54.26232338
1.496,54.294197085
1.497,54.321479795
1.498,54.34759712
1.499,54.348909375
1.5,54.377140045
1.501,54.42280769
1.502,54.45642662
1.503,54.46073151
1.504,54.479471205
1.505,54.50395775
1.506,54.51886368
1.507,54.517181395
1.508,54.55853081
1.509,54.55788231
1.51,54.591026305
1.511,54.614067075
1.512,54.61100197
1.513,54.626358035
1.514,54.69239998
1.515,54.716308595
1.516,54.72433853
1.517,54.735975265
1.518,54.737394335
1.519,54.768901825
1.52,54.768131255
1.521,54.80923653
1.522,54.83305359
1.523,54.83932304
1.524,54.83535385
1.525,54.840995785
1.526,54.86083603
1.527,54.87838364
1.528,54.90548134
1.529,54.90023613
1.53,54.904605865
1.531,54.92103958
1.532,54.930299755
1.533,54.950349805
1.534,55.02073097
1.535,54.987695695
1.536,55.020153045
1.537,55.00826454
1.538,54.98583603
1.539,55.05058098
1.54,55.035160065
1.541,55.008647915
1.542,55.03703308
1.543,55.06231308
1.544,55.03696251
1.545,55.06905556
1.546,55.106525425
1.547,55.107595445
1.548,55.09185219
1.549,55.121526715
1.55,55.101327895
1.551,55.102211
1.552,55.137680055
1.553,55.117874145
1.554,55.086309435
1.555,55.137962345
1.556,55.103033065
1.557,55.15032959
1.558,55.132638935
1.559,55.14999771
1.56,55.12797546
1.561,55.116733555
1.562,55.09298706
1.563,55.10615158
1.564,55.11808777
1.565,55.15116501
1.566,55.14882851
1.567,55.12854576
1.568,55.105171205
1.569,55.10569382
1.57,55.0911274
1.571,55.09726715
1.572,55.048425675
1.573,55.07600784
1.574,55.09597969
1.575,55.053274155
1.576,55.09168434
1.577,55.08401489
1.578,55.04651451
1.579,54.994243625
1.58,55.059970855
1.581,55.01836014
1.582,55.036144255
1.583,55.03547287
1.584,54.981918335
1.585,54.982250215
